Time (ms),Position (mm),Speed (m/s),Ts,20,ms
0,0,0,V_avg,0.047580534,m/s
20,0.326797386,0.016339869,,,
40,0.980392157,0.032679739,,,
60,1.797385621,0.040849673,,,
80,2.614379085,0.040849673,,,
100,4.411764706,0.089869281,,,
120,5.22875817,0.040849673,,,
140,6.209150327,0.049019608,,,
160,7.026143791,0.040849673,,,
180,8.006535948,0.049019608,,,
200,8.986928105,0.049019608,,,
220,9.803921569,0.040849673,,,
240,10.78431373,0.049019608,,,
260,11.76470588,0.049019608,,,
280,12.58169935,0.040849673,,,
300,13.5620915,0.049019608,,,
320,15.35947712,0.089869281,,,
340,16.17647059,0.040849673,,,
360,17.15686275,0.049019608,,,
380,18.1372549,0.049019608,,,
400,18.95424837,0.040849673,,,
420,19.93464052,0.049019608,,,
440,20.75163399,0.040849673,,,
460,21.73202614,0.049019608,,,
480,22.7124183,0.049019608,,,
500,23.52941176,0.040849673,,,
520,24.50980392,0.049019608,,,
540,25.32679739,0.040849673,,,
560,26.30718954,0.049019608,,,
580,27.2875817,0.049019608,,,
600,28.10457516,0.040849673,,,
620,29.08496732,0.049019608,,,
640,29.90196078,0.040849673,,,
660,30.88235294,0.049019608,,,
680,31.69934641,0.040849673,,,
700,32.67973856,0.049019608,,,
720,33.66013072,0.049019608,,,
740,34.47712418,0.040849673,,,
760,35.45751634,0.049019608,,,
780,36.4379085,0.049019608,,,
800,37.25490196,0.040849673,,,
820,38.23529412,0.049019608,,,
840,39.05228758,0.040849673,,,
860,40.03267974,0.049019608,,,
880,41.0130719,0.049019608,,,
900,41.83006536,0.040849673,,,
920,42.81045752,0.049019608,,,
940,43.62745098,0.040849673,,,
960,44.60784314,0.049019608,,,
980,45.4248366,0.040849673,,,
1000,46.40522876,0.049019608,,,
1020,47.38562092,0.049019608,,,
1040,48.20261438,0.040849673,,,
1060,49.18300654,0.049019608,,,
1080,50,0.040849673,,,
1100,50.98039216,0.049019608,,,
1120,52.77777778,0.089869281,,,
1140,53.75816993,0.049019608,,,
1160,54.5751634,0.040849673,,,
1180,55.55555556,0.049019608,,,
1200,56.37254902,0.040849673,,,
1220,57.35294118,0.049019608,,,
1240,58.16993464,0.040849673,,,
1260,59.1503268,0.049019608,,,
1280,60.13071895,0.049019608,,,
1300,60.94771242,0.040849673,,,
1320,61.92810458,0.049019608,,,
1340,62.74509804,0.040849673,,,
1360,63.7254902,0.049019608,,,
1380,64.70588235,0.049019608,,,
1400,65.52287582,0.040849673,,,
1420,67.32026144,0.089869281,,,
1440,68.30065359,0.049019608,,,
1460,69.28104575,0.049019608,,,
1480,70.09803922,0.040849673,,,
1500,71.07843137,0.049019608,,,
1520,71.89542484,0.040849673,,,
1540,72.87581699,0.049019608,,,
1560,73.69281046,0.040849673,,,
1580,74.67320261,0.049019608,,,
1600,75.65359477,0.049019608,,,
1620,76.47058824,0.040849673,,,
1640,77.45098039,0.049019608,,,
1660,78.43137255,0.049019608,,,
1680,79.24836601,0.040849673,,,
1700,80.22875817,0.049019608,,,
1720,81.20915033,0.049019608,,,
1740,82.02614379,0.040849673,,,
1760,83.00653595,0.049019608,,,
1780,83.82352941,0.040849673,,,
1800,84.80392157,0.049019608,,,
1820,85.62091503,0.040849673,,,
1840,86.60130719,0.049019608,,,
1860,87.58169935,0.049019608,,,
1880,88.39869281,0.040849673,,,
1900,89.37908497,0.049019608,,,
1920,90.35947712,0.049019608,,,
1940,91.17647059,0.040849673,,,
1960,92.15686275,0.049019608,,,
1980,93.1372549,0.049019608,,,
2000,93.95424837,0.040849673,,,
2020,94.93464052,0.049019608,,,
2040,95.75163399,0.040849673,,,
2060,96.73202614,0.049019608,,,
2080,97.7124183,0.049019608,,,
2100,98.52941176,0.040849673,,,
2120,99.50980392,0.049019608,,,
2140,100.3267974,0.040849673,,,
2160,101.3071895,0.049019608,,,
2180,102.2875817,0.049019608,,,
2200,103.1045752,0.040849673,,,
2220,105.0653595,0.098039216,,,
2240,105.8823529,0.040849673,,,
2260,106.8627451,0.049019608,,,
2280,107.8431373,0.049019608,,,
2300,108.6601307,0.040849673,,,
2320,109.6405229,0.049019608,,,
2340,110.4575163,0.040849673,,,
2360,111.4379085,0.049019608,,,
2380,112.4183007,0.049019608,,,
2400,113.2352941,0.040849673,,,
2420,114.2156863,0.049019608,,,
2440,116.0130719,0.089869281,,,
2460,116.9934641,0.049019608,,,
2480,117.8104575,0.040849673,,,
2500,118.7908497,0.049019608,,,
2520,119.7712418,0.049019608,,,
2540,120.5882353,0.040849673,,,
2560,121.5686275,0.049019608,,,
2580,122.5490196,0.049019608,,,
2600,123.3660131,0.040849673,,,
2620,124.3464052,0.049019608,,,
2640,125.1633987,0.040849673,,,
2660,126.1437908,0.049019608,,,
2680,127.124183,0.049019608,,,
2700,127.9411765,0.040849673,,,
2720,128.9215686,0.049019608,,,
2740,129.7385621,0.040849673,,,
2760,130.7189542,0.049019608,,,
2780,131.6993464,0.049019608,,,
2800,132.5163399,0.040849673,,,
2820,133.496732,0.049019608,,,
2840,134.4771242,0.049019608,,,
2860,135.2941176,0.040849673,,,
2880,136.2745098,0.049019608,,,
2900,137.254902,0.049019608,,,
2920,138.0718954,0.040849673,,,
2940,139.0522876,0.049019608,,,
2960,140.0326797,0.049019608,,,
2980,140.8496732,0.040849673,,,
3000,141.8300654,0.049019608,,,
3020,142.6470588,0.040849673,,,
3040,143.627451,0.049019608,,,
3060,144.4444444,0.040849673,,,
3080,145.4248366,0.049019608,,,
3100,146.4052288,0.049019608,,,
3120,147.2222222,0.040849673,,,
3140,148.2026144,0.049019608,,,
3160,149.1830065,0.049019608,,,
3180,150,0.040849673,,,
3200,150.9803922,0.049019608,,,
3220,151.9607843,0.049019608,,,
3240,152.7777778,0.040849673,,,
3260,153.7581699,0.049019608,,,
3280,154.7385621,0.049019608,,,
3300,155.5555556,0.040849673,,,
3320,156.5359477,0.049019608,,,
3340,157.3529412,0.040849673,,,
3360,158.3333333,0.049019608,,,
3380,159.3137255,0.049019608,,,
3400,160.130719,0.040849673,,,
3420,161.1111111,0.049019608,,,
3440,161.9281046,0.040849673,,,
3460,162.9084967,0.049019608,,,
3480,163.8888889,0.049019608,,,
3500,164.7058824,0.040849673,,,
3520,165.6862745,0.049019608,,,
3540,166.6666667,0.049019608,,,
3560,168.4640523,0.089869281,,,
3580,169.4444444,0.049019608,,,
3600,170.2614379,0.040849673,,,
3620,171.2418301,0.049019608,,,
3640,172.0588235,0.040849673,,,
3660,173.0392157,0.049019608,,,
3680,173.8562092,0.040849673,,,
3700,174.8366013,0.049019608,,,
3720,175.8169935,0.049019608,,,
3740,176.6339869,0.040849673,,,
3760,177.6143791,0.049019608,,,
3780,178.5947712,0.049019608,,,
3800,179.4117647,0.040849673,,,
3820,180.3921569,0.049019608,,,
3840,181.372549,0.049019608,,,
3860,183.1699346,0.089869281,,,
3880,183.9869281,0.040849673,,,
3900,184.9673203,0.049019608,,,
3920,185.7843137,0.040849673,,,
3940,186.7647059,0.049019608,,,
3960,187.745098,0.049019608,,,
3980,188.5620915,0.040849673,,,
4000,189.5424837,0.049019608,,,
4020,190.3594771,0.040849673,,,
4040,191.3398693,0.049019608,,,
4060,192.3202614,0.049019608,,,
4080,193.1372549,0.040849673,,,
4100,194.1176471,0.049019608,,,
4120,195.0980392,0.049019608,,,
4140,195.9150327,0.040849673,,,
4160,196.8954248,0.049019608,,,
4180,197.875817,0.049019608,,,
4200,198.6928105,0.040849673,,,
4220,199.6732026,0.049019608,,,
4240,200.4901961,0.040849673,,,
4260,201.4705882,0.049019608,,,
4280,202.4509804,0.049019608,,,
4300,203.2679739,0.040849673,,,
4320,204.248366,0.049019608,,,
4340,205.0653595,0.040849673,,,
4360,206.0457516,0.049019608,,,
4380,207.0261438,0.049019608,,,
4400,207.8431373,0.040849673,,,
4420,208.8235294,0.049019608,,,
4440,209.8039216,0.049019608,,,
4460,210.620915,0.040849673,,,
4480,211.6013072,0.049019608,,,
4500,212.5816993,0.049019608,,,
4520,213.3986928,0.040849673,,,
4540,214.379085,0.049019608,,,
4560,215.1960784,0.040849673,,,
4580,216.1764706,0.049019608,,,
4600,217.9738562,0.089869281,,,
4620,218.9542484,0.049019608,,,
4640,219.7712418,0.040849673,,,
4660,220.751634,0.049019608,,,
4680,221.7320261,0.049019608,,,
4700,222.5490196,0.040849673,,,
4720,223.5294118,0.049019608,,,
4740,224.5098039,0.049019608,,,
4760,225.3267974,0.040849673,,,
4780,226.3071895,0.049019608,,,
4800,227.124183,0.040849673,,,
4820,229.0849673,0.098039216,,,
4840,229.9019608,0.040849673,,,
4860,230.8823529,0.049019608,,,
4880,231.6993464,0.040849673,,,
4900,232.6797386,0.049019608,,,
4920,233.6601307,0.049019608,,,
4940,234.4771242,0.040849673,,,
4960,235.4575163,0.049019608,,,
4980,236.4379085,0.049019608,,,
5000,237.254902,0.040849673,,,
5020,238.2352941,0.049019608,,,
5040,239.0522876,0.040849673,,,
5060,240.0326797,0.049019608,,,
5080,241.0130719,0.049019608,,,
5100,241.8300654,0.040849673,,,
5120,242.8104575,0.049019608,,,
5140,243.627451,0.040849673,,,
5160,244.6078431,0.049019608,,,
5180,245.5882353,0.049019608,,,
5200,246.4052288,0.040849673,,,
5220,247.3856209,0.049019608,,,
5240,248.2026144,0.040849673,,,
5260,249.1830065,0.049019608,,,
5280,250.1633987,0.049019608,,,
5300,250.9803922,0.040849673,,,
5320,251.9607843,0.049019608,,,
5340,252.9411765,0.049019608,,,
5360,253.7581699,0.040849673,,,
5380,255.7189542,0.098039216,,,
5400,256.5359477,0.040849673,,,
5420,258.3333333,0.089869281,,,
5440,259.3137255,0.049019608,,,
5460,260.130719,0.040849673,,,
5480,261.1111111,0.049019608,,,
5500,262.0915033,0.049019608,,,
5520,262.9084967,0.040849673,,,
5540,263.8888889,0.049019608,,,
5560,264.869281,0.049019608,,,
5580,266.6666667,0.089869281,,,
5600,267.6470588,0.049019608,,,
5620,268.4640523,0.040849673,,,
5640,269.4444444,0.049019608,,,
5660,270.2614379,0.040849673,,,
5680,271.2418301,0.049019608,,,
5700,272.2222222,0.049019608,,,
5720,273.0392157,0.040849673,,,
5740,274.0196078,0.049019608,,,
5760,274.8366013,0.040849673,,,
5780,275.8169935,0.049019608,,,
5800,276.7973856,0.049019608,,,
5820,277.6143791,0.040849673,,,
5840,278.5947712,0.049019608,,,
5860,279.5751634,0.049019608,,,
5880,280.3921569,0.040849673,,,
5900,281.372549,0.049019608,,,
5920,282.3529412,0.049019608,,,
5940,283.1699346,0.040849673,,,
5960,284.1503268,0.049019608,,,
5980,284.9673203,0.040849673,,,
6000,285.9477124,0.049019608,,,
6020,286.9281046,0.049019608,,,
6040,287.745098,0.040849673,,,
6060,288.7254902,0.049019608,,,
6080,289.5424837,0.040849673,,,
6100,290.5228758,0.049019608,,,
6120,291.503268,0.049019608,,,
6140,292.3202614,0.040849673,,,
6160,293.3006536,0.049019608,,,
6180,294.2810458,0.049019608,,,
6200,295.0980392,0.040849673,,,
6220,296.0784314,0.049019608,,,
6240,297.0588235,0.049019608,,,
6260,297.875817,0.040849673,,,
6280,298.8562092,0.049019608,,,
6300,299.6732026,0.040849673,,,
6320,301.6339869,0.098039216,,,
6340,302.4509804,0.040849673,,,
6360,303.4313725,0.049019608,,,
6380,304.248366,0.040849673,,,
6400,305.2287582,0.049019608,,,
6420,306.2091503,0.049019608,,,
6440,307.0261438,0.040849673,,,
6460,308.0065359,0.049019608,,,
6480,308.9869281,0.049019608,,,
6500,309.8039216,0.040849673,,,
6520,310.7843137,0.049019608,,,
6540,311.7647059,0.049019608,,,
6560,312.5816993,0.040849673,,,
6580,313.5620915,0.049019608,,,
6600,314.379085,0.040849673,,,
6620,315.3594771,0.049019608,,,
6640,316.3398693,0.049019608,,,
6660,317.1568627,0.040849673,,,
6680,318.1372549,0.049019608,,,
6700,318.9542484,0.040849673,,,
6720,319.9346405,0.049019608,,,
6740,320.9150327,0.049019608,,,
6760,321.7320261,0.040849673,,,
6780,322.7124183,0.049019608,,,
6800,324.5098039,0.089869281,,,
6820,325.4901961,0.049019608,,,
6840,326.4705882,0.049019608,,,
6860,327.2875817,0.040849673,,,
6880,328.2679739,0.049019608,,,
6900,329.0849673,0.040849673,,,
6920,330.0653595,0.049019608,,,
6940,331.0457516,0.049019608,,,
6960,331.8627451,0.040849673,,,
6980,332.8431373,0.049019608,,,
7000,333.6601307,0.040849673,,,
7020,334.6405229,0.049019608,,,
7040,335.620915,0.049019608,,,
7060,336.4379085,0.040849673,,,
7080,337.4183007,0.049019608,,,
7100,339.2156863,0.089869281,,,
7120,340.1960784,0.049019608,,,
7140,341.1764706,0.049019608,,,
7160,341.9934641,0.040849673,,,
7180,342.9738562,0.049019608,,,
7200,343.9542484,0.049019608,,,
7220,344.7712418,0.040849673,,,
7240,345.751634,0.049019608,,,
7260,346.5686275,0.040849673,,,
7280,347.5490196,0.049019608,,,
7300,348.3660131,0.040849673,,,
7320,349.3464052,0.049019608,,,
7340,350.3267974,0.049019608,,,
7360,351.1437908,0.040849673,,,
7380,352.124183,0.049019608,,,
7400,353.9215686,0.089869281,,,
7420,354.9019608,0.049019608,,,
7440,355.8823529,0.049019608,,,
7460,356.6993464,0.040849673,,,
7480,357.6797386,0.049019608,,,
7500,358.496732,0.040849673,,,
7520,359.4771242,0.049019608,,,
7540,360.2941176,0.040849673,,,
7560,361.1111111,0.040849673,,,
7580,362.0915033,0.049019608,,,
7600,362.9084967,0.040849673,,,
7620,363.8888889,0.049019608,,,
7640,364.869281,0.049019608,,,
7660,365.6862745,0.040849673,,,
7680,366.6666667,0.049019608,,,
7700,367.6470588,0.049019608,,,
7720,368.4640523,0.040849673,,,
7740,370.4248366,0.098039216,,,
7760,371.2418301,0.040849673,,,
7780,372.2222222,0.049019608,,,
7800,373.0392157,0.040849673,,,
7820,374.0196078,0.049019608,,,
7840,374.8366013,0.040849673,,,
7860,375.8169935,0.049019608,,,
7880,376.7973856,0.049019608,,,
7900,377.6143791,0.040849673,,,
7920,378.5947712,0.049019608,,,
7940,379.5751634,0.049019608,,,
7960,380.3921569,0.040849673,,,
7980,381.372549,0.049019608,,,
8000,382.3529412,0.049019608,,,
8020,383.1699346,0.040849673,,,
8040,384.1503268,0.049019608,,,
8060,385.130719,0.049019608,,,
8080,385.9477124,0.040849673,,,
8100,387.745098,0.089869281,,,
8120,388.7254902,0.049019608,,,
8140,389.5424837,0.040849673,,,
8160,390.5228758,0.049019608,,,
8180,391.503268,0.049019608,,,
8200,392.3202614,0.040849673,,,
8220,393.3006536,0.049019608,,,
8240,394.2810458,0.049019608,,,
8260,395.0980392,0.040849673,,,
8280,396.0784314,0.049019608,,,
8300,396.8954248,0.040849673,,,
8320,397.7124183,0.040849673,,,
8340,398.6928105,0.049019608,,,
8360,399.5098039,0.040849673,,,
8380,400.4901961,0.049019608,,,
8400,402.2875817,0.089869281,,,
8420,403.2679739,0.049019608,,,
8440,404.0849673,0.040849673,,,
8460,405.0653595,0.049019608,,,
8480,406.0457516,0.049019608,,,
8500,406.8627451,0.040849673,,,
8520,407.8431373,0.049019608,,,
8540,408.6601307,0.040849673,,,
8560,409.6405229,0.049019608,,,
8580,410.620915,0.049019608,,,
8600,411.4379085,0.040849673,,,
8620,412.4183007,0.049019608,,,
8640,413.3986928,0.049019608,,,
8660,414.2156863,0.040849673,,,
8680,415.1960784,0.049019608,,,
8700,416.0130719,0.040849673,,,
8720,416.9934641,0.049019608,,,
8740,417.9738562,0.049019608,,,
8760,418.7908497,0.040849673,,,
8780,419.7712418,0.049019608,,,
8800,420.5882353,0.040849673,,,
8820,421.5686275,0.049019608,,,
8840,422.5490196,0.049019608,,,
8860,423.3660131,0.040849673,,,
8880,424.3464052,0.049019608,,,
8900,425.3267974,0.049019608,,,
8920,426.1437908,0.040849673,,,
8940,427.124183,0.049019608,,,
8960,428.1045752,0.049019608,,,
8980,428.9215686,0.040849673,,,
9000,429.9019608,0.049019608,,,
9020,430.7189542,0.040849673,,,
9040,431.6993464,0.049019608,,,
9060,432.5163399,0.040849673,,,
9080,433.496732,0.049019608,,,
9100,434.3137255,0.040849673,,,
9120,435.130719,0.040849673,,,
9140,436.1111111,0.049019608,,,
9160,436.9281046,0.040849673,,,
9180,437.9084967,0.049019608,,,
9200,438.8888889,0.049019608,,,
9220,439.7058824,0.040849673,,,
9240,440.6862745,0.049019608,,,
9260,441.6666667,0.049019608,,,
9280,442.4836601,0.040849673,,,
9300,443.4640523,0.049019608,,,
9320,444.2810458,0.040849673,,,
9340,445.2614379,0.049019608,,,
9360,446.2418301,0.049019608,,,
9380,447.0588235,0.040849673,,,
9400,448.0392157,0.049019608,,,
9420,448.8562092,0.040849673,,,
9440,449.8366013,0.049019608,,,
9460,450.8169935,0.049019608,,,
9480,451.6339869,0.040849673,,,
9500,452.6143791,0.049019608,,,
9520,453.5947712,0.049019608,,,
9540,454.4117647,0.040849673,,,
9560,455.3921569,0.049019608,,,
9580,456.2091503,0.040849673,,,
9600,457.1895425,0.049019608,,,
9620,458.1699346,0.049019608,,,
9640,458.9869281,0.040849673,,,
9660,459.9673203,0.049019608,,,
9680,460.7843137,0.040849673,,,
9700,461.7647059,0.049019608,,,
9720,462.745098,0.049019608,,,
9740,463.5620915,0.040849673,,,
9760,464.5424837,0.049019608,,,
9780,465.5228758,0.049019608,,,
9800,466.3398693,0.040849673,,,
9820,468.1372549,0.089869281,,,
9840,468.9542484,0.040849673,,,
9860,469.9346405,0.049019608,,,
9880,470.751634,0.040849673,,,
9900,471.7320261,0.049019608,,,
9920,472.7124183,0.049019608,,,
9940,473.5294118,0.040849673,,,
9960,474.5098039,0.049019608,,,
9980,475.3267974,0.040849673,,,
10000,476.3071895,0.049019608,,,
10020,477.124183,0.040849673,,,
10040,478.1045752,0.049019608,,,
10060,479.0849673,0.049019608,,,
10080,479.9019608,0.040849673,,,
10100,480.8823529,0.049019608,,,
10120,482.6797386,0.089869281,,,
10140,483.6601307,0.049019608,,,
10160,484.4771242,0.040849673,,,
10180,485.4575163,0.049019608,,,
10200,486.4379085,0.049019608,,,
10220,487.254902,0.040849673,,,
10240,488.2352941,0.049019608,,,
10260,489.0522876,0.040849673,,,
10280,490.0326797,0.049019608,,,
10300,490.8496732,0.040849673,,,
10320,491.8300654,0.049019608,,,
10340,492.8104575,0.049019608,,,
10360,493.627451,0.040849673,,,
10380,494.6078431,0.049019608,,,
10400,495.4248366,0.040849673,,,
10420,496.4052288,0.049019608,,,
10440,497.3856209,0.049019608,,,
10460,498.2026144,0.040849673,,,
10480,499.1830065,0.049019608,,,
10500,500,0.040849673,,,
10520,501.9607843,0.098039216,,,
10540,502.7777778,0.040849673,,,
10560,503.7581699,0.049019608,,,
10580,504.5751634,0.040849673,,,
10600,505.5555556,0.049019608,,,
10620,506.5359477,0.049019608,,,
10640,507.3529412,0.040849673,,,
10660,508.3333333,0.049019608,,,
10680,509.1503268,0.040849673,,,
10700,510.130719,0.049019608,,,
10720,511.1111111,0.049019608,,,
10740,511.9281046,0.040849673,,,
10760,512.9084967,0.049019608,,,
10780,513.7254902,0.040849673,,,
10800,514.7058824,0.049019608,,,
10820,516.503268,0.089869281,,,
10840,517.4836601,0.049019608,,,
10860,518.3006536,0.040849673,,,
10880,519.2810458,0.049019608,,,
10900,520.2614379,0.049019608,,,
10920,521.0784314,0.040849673,,,
10940,522.0588235,0.049019608,,,
10960,522.875817,0.040849673,,,
10980,523.8562092,0.049019608,,,
11000,524.8366013,0.049019608,,,
11020,525.6535948,0.040849673,,,
11040,526.6339869,0.049019608,,,
11060,527.4509804,0.040849673,,,
11080,528.4313725,0.049019608,,,
11100,529.248366,0.040849673,,,
11120,531.0457516,0.089869281,,,
11140,531.8627451,0.040849673,,,
11160,532.8431373,0.049019608,,,
11180,533.8235294,0.049019608,,,
11200,534.6405229,0.040849673,,,
11220,535.620915,0.049019608,,,
11240,536.4379085,0.040849673,,,
11260,537.4183007,0.049019608,,,
11280,538.3986928,0.049019608,,,
11300,539.2156863,0.040849673,,,
11320,540.1960784,0.049019608,,,
11340,541.0130719,0.040849673,,,
11360,541.9934641,0.049019608,,,
11380,542.8104575,0.040849673,,,
11400,543.7908497,0.049019608,,,
11420,544.7712418,0.049019608,,,
11440,545.5882353,0.040849673,,,
11460,546.5686275,0.049019608,,,
11480,547.3856209,0.040849673,,,
11500,548.3660131,0.049019608,,,
11520,549.3464052,0.049019608,,,
11540,550.1633987,0.040849673,,,
11560,551.1437908,0.049019608,,,
11580,552.124183,0.049019608,,,
11600,552.9411765,0.040849673,,,
11620,553.9215686,0.049019608,,,
11640,554.7385621,0.040849673,,,
11660,555.7189542,0.049019608,,,
11680,556.5359477,0.040849673,,,
11700,557.5163399,0.049019608,,,
11720,558.496732,0.049019608,,,
11740,560.2941176,0.089869281,,,
11760,561.1111111,0.040849673,,,
11780,562.0915033,0.049019608,,,
11800,563.0718954,0.049019608,,,
11820,564.869281,0.089869281,,,
11840,565.8496732,0.049019608,,,
11860,566.6666667,0.040849673,,,
11880,567.6470588,0.049019608,,,
11900,568.4640523,0.040849673,,,
11920,569.4444444,0.049019608,,,
11940,570.2614379,0.040849673,,,
11960,571.2418301,0.049019608,,,
11980,572.2222222,0.049019608,,,
12000,573.0392157,0.040849673,,,
12020,574.0196078,0.049019608,,,
12040,574.8366013,0.040849673,,,
12060,575.8169935,0.049019608,,,
12080,576.7973856,0.049019608,,,
12100,577.6143791,0.040849673,,,
12120,578.5947712,0.049019608,,,
12140,579.5751634,0.049019608,,,
12160,580.3921569,0.040849673,,,
12180,581.372549,0.049019608,,,
12200,582.1895425,0.040849673,,,
12220,583.1699346,0.049019608,,,
12240,583.9869281,0.040849673,,,
12260,584.9673203,0.049019608,,,
12280,585.9477124,0.049019608,,,
12300,586.7647059,0.040849673,,,
12320,587.745098,0.049019608,,,
12340,588.5620915,0.040849673,,,
12360,589.5424837,0.049019608,,,
12380,590.5228758,0.049019608,,,
12400,591.3398693,0.040849673,,,
12420,592.3202614,0.049019608,,,
12440,593.3006536,0.049019608,,,
12460,594.1176471,0.040849673,,,
