Time (ms),Position (mm),Speed (m/s),,Hp,0.002,m
0,0,0,,N,20,teeth
20,0.163398693,12.25490196,,Ts,20,ms
40,0.653594771,36.76470588,,V_avg,45.9512333,rpm
60,1.14379085,36.76470588,,,,
80,1.633986928,36.76470588,,,,
100,2.287581699,49.01960784,,,,
120,2.777777778,36.76470588,,,,
140,3.431372549,49.01960784,,,,
160,3.921568627,36.76470588,,,,
180,5.22875817,98.03921569,,,,
200,5.718954248,36.76470588,,,,
220,6.37254902,49.01960784,,,,
240,7.026143791,49.01960784,,,,
260,7.516339869,36.76470588,,,,
280,8.169934641,49.01960784,,,,
300,8.660130719,36.76470588,,,,
320,9.31372549,49.01960784,,,,
340,9.967320261,49.01960784,,,,
360,10.45751634,36.76470588,,,,
380,11.11111111,49.01960784,,,,
400,11.76470588,49.01960784,,,,
420,12.25490196,36.76470588,,,,
440,12.90849673,49.01960784,,,,
460,13.39869281,36.76470588,,,,
480,14.05228758,49.01960784,,,,
500,14.70588235,49.01960784,,,,
520,15.19607843,36.76470588,,,,
540,15.8496732,49.01960784,,,,
560,16.33986928,36.76470588,,,,
580,16.99346405,49.01960784,,,,
600,17.64705882,49.01960784,,,,
620,18.1372549,36.76470588,,,,
640,18.79084967,49.01960784,,,,
660,19.28104575,36.76470588,,,,
680,19.93464052,49.01960784,,,,
700,20.58823529,49.01960784,,,,
720,21.07843137,36.76470588,,,,
740,21.73202614,49.01960784,,,,
760,22.22222222,36.76470588,,,,
780,22.87581699,49.01960784,,,,
800,23.52941176,49.01960784,,,,
820,24.01960784,36.76470588,,,,
840,24.67320261,49.01960784,,,,
860,25.16339869,36.76470588,,,,
880,25.81699346,49.01960784,,,,
900,26.47058824,49.01960784,,,,
920,26.96078431,36.76470588,,,,
940,27.61437908,49.01960784,,,,
960,28.10457516,36.76470588,,,,
980,29.41176471,98.03921569,,,,
1000,29.90196078,36.76470588,,,,
1020,30.55555556,49.01960784,,,,
1040,31.69934641,85.78431373,,,,
1060,32.18954248,36.76470588,,,,
1080,32.84313725,49.01960784,,,,
1100,33.49673203,49.01960784,,,,
1120,33.9869281,36.76470588,,,,
1140,34.64052288,49.01960784,,,,
1160,35.29411765,49.01960784,,,,
1180,35.78431373,36.76470588,,,,
1200,36.4379085,49.01960784,,,,
1220,36.92810458,36.76470588,,,,
1240,37.58169935,49.01960784,,,,
1260,38.07189542,36.76470588,,,,
1280,38.7254902,49.01960784,,,,
1300,39.37908497,49.01960784,,,,
1320,39.86928105,36.76470588,,,,
1340,40.52287582,49.01960784,,,,
1360,41.17647059,49.01960784,,,,
1380,41.66666667,36.76470588,,,,
1400,42.32026144,49.01960784,,,,
1420,42.81045752,36.76470588,,,,
1440,43.46405229,49.01960784,,,,
1460,43.95424837,36.76470588,,,,
1480,44.60784314,49.01960784,,,,
1500,45.26143791,49.01960784,,,,
1520,45.75163399,36.76470588,,,,
1540,46.40522876,49.01960784,,,,
1560,46.89542484,36.76470588,,,,
1580,47.54901961,49.01960784,,,,
1600,48.20261438,49.01960784,,,,
1620,48.69281046,36.76470588,,,,
1640,49.34640523,49.01960784,,,,
1660,49.83660131,36.76470588,,,,
1680,50.49019608,49.01960784,,,,
1700,51.14379085,49.01960784,,,,
1720,51.63398693,36.76470588,,,,
1740,52.2875817,49.01960784,,,,
1760,53.43137255,85.78431373,,,,
1780,54.08496732,49.01960784,,,,
1800,54.5751634,36.76470588,,,,
1820,55.22875817,49.01960784,,,,
1840,55.71895425,36.76470588,,,,
1860,56.37254902,49.01960784,,,,
1880,57.02614379,49.01960784,,,,
1900,57.51633987,36.76470588,,,,
1920,58.16993464,49.01960784,,,,
1940,58.82352941,49.01960784,,,,
1960,59.31372549,36.76470588,,,,
1980,59.96732026,49.01960784,,,,
2000,60.45751634,36.76470588,,,,
2020,61.11111111,49.01960784,,,,
2040,61.60130719,36.76470588,,,,
2060,62.25490196,49.01960784,,,,
2080,62.90849673,49.01960784,,,,
2100,63.39869281,36.76470588,,,,
2120,64.05228758,49.01960784,,,,
2140,64.54248366,36.76470588,,,,
2160,65.19607843,49.01960784,,,,
2180,65.8496732,49.01960784,,,,
2200,66.33986928,36.76470588,,,,
2220,66.99346405,49.01960784,,,,
2240,67.48366013,36.76470588,,,,
2260,68.1372549,49.01960784,,,,
2280,68.62745098,36.76470588,,,,
2300,69.28104575,49.01960784,,,,
2320,69.93464052,49.01960784,,,,
2340,70.4248366,36.76470588,,,,
2360,71.07843137,49.01960784,,,,
2380,71.73202614,49.01960784,,,,
2400,72.22222222,36.76470588,,,,
2420,72.87581699,49.01960784,,,,
2440,73.36601307,36.76470588,,,,
2460,74.01960784,49.01960784,,,,
2480,74.50980392,36.76470588,,,,
2500,75.16339869,49.01960784,,,,
2520,75.81699346,49.01960784,,,,
2540,76.30718954,36.76470588,,,,
2560,76.96078431,49.01960784,,,,
2580,77.61437908,49.01960784,,,,
2600,78.10457516,36.76470588,,,,
2620,78.75816993,49.01960784,,,,
2640,79.24836601,36.76470588,,,,
2660,79.90196078,49.01960784,,,,
2680,80.39215686,36.76470588,,,,
2700,81.04575163,49.01960784,,,,
2720,81.69934641,49.01960784,,,,
2740,82.18954248,36.76470588,,,,
2760,82.84313725,49.01960784,,,,
2780,83.49673203,49.01960784,,,,
2800,83.9869281,36.76470588,,,,
2820,84.64052288,49.01960784,,,,
2840,85.13071895,36.76470588,,,,
2860,85.78431373,49.01960784,,,,
2880,86.92810458,85.78431373,,,,
2900,87.58169935,49.01960784,,,,
2920,88.07189542,36.76470588,,,,
2940,88.7254902,49.01960784,,,,
2960,89.37908497,49.01960784,,,,
2980,89.86928105,36.76470588,,,,
3000,90.52287582,49.01960784,,,,
3020,91.0130719,36.76470588,,,,
3040,91.66666667,49.01960784,,,,
3060,92.15686275,36.76470588,,,,
3080,92.81045752,49.01960784,,,,
3100,93.46405229,49.01960784,,,,
3120,93.95424837,36.76470588,,,,
3140,94.60784314,49.01960784,,,,
3160,95.26143791,49.01960784,,,,
3180,95.75163399,36.76470588,,,,
3200,96.40522876,49.01960784,,,,
3220,96.89542484,36.76470588,,,,
3240,97.54901961,49.01960784,,,,
3260,98.03921569,36.76470588,,,,
3280,98.69281046,49.01960784,,,,
3300,99.34640523,49.01960784,,,,
3320,99.83660131,36.76470588,,,,
3340,100.4901961,49.01960784,,,,
3360,101.1437908,49.01960784,,,,
3380,101.6339869,36.76470588,,,,
3400,102.2875817,49.01960784,,,,
3420,102.7777778,36.76470588,,,,
3440,103.4313725,49.01960784,,,,
3460,103.9215686,36.76470588,,,,
3480,104.5751634,49.01960784,,,,
3500,105.2287582,49.01960784,,,,
3520,105.7189542,36.76470588,,,,
3540,106.372549,49.01960784,,,,
3560,107.0261438,49.01960784,,,,
3580,107.5163399,36.76470588,,,,
3600,108.1699346,49.01960784,,,,
3620,108.6601307,36.76470588,,,,
3640,109.3137255,49.01960784,,,,
3660,109.8039216,36.76470588,,,,
3680,111.1111111,98.03921569,,,,
3700,111.6013072,36.76470588,,,,
3720,112.254902,49.01960784,,,,
3740,112.9084967,49.01960784,,,,
3760,113.3986928,36.76470588,,,,
3780,114.0522876,49.01960784,,,,
3800,114.5424837,36.76470588,,,,
3820,115.1960784,49.01960784,,,,
3840,116.3398693,85.78431373,,,,
3860,116.9934641,49.01960784,,,,
3880,117.4836601,36.76470588,,,,
3900,118.1372549,49.01960784,,,,
3920,118.7908497,49.01960784,,,,
3940,119.2810458,36.76470588,,,,
3960,120.4248366,85.78431373,,,,
3980,121.0784314,49.01960784,,,,
4000,121.5686275,36.76470588,,,,
4020,122.2222222,49.01960784,,,,
4040,122.875817,49.01960784,,,,
4060,123.3660131,36.76470588,,,,
4080,124.0196078,49.01960784,,,,
4100,124.6732026,49.01960784,,,,
4120,125.1633987,36.76470588,,,,
4140,125.8169935,49.01960784,,,,
4160,126.3071895,36.76470588,,,,
4180,126.9607843,49.01960784,,,,
4200,127.4509804,36.76470588,,,,
4220,128.1045752,49.01960784,,,,
4240,128.7581699,49.01960784,,,,
4260,129.248366,36.76470588,,,,
4280,129.9019608,49.01960784,,,,
4300,130.5555556,49.01960784,,,,
4320,131.0457516,36.76470588,,,,
4340,131.6993464,49.01960784,,,,
4360,132.1895425,36.76470588,,,,
4380,132.8431373,49.01960784,,,,
4400,133.3333333,36.76470588,,,,
4420,133.9869281,49.01960784,,,,
4440,134.6405229,49.01960784,,,,
4460,135.130719,36.76470588,,,,
4480,135.7843137,49.01960784,,,,
4500,136.2745098,36.76470588,,,,
4520,136.9281046,49.01960784,,,,
4540,137.5816993,49.01960784,,,,
4560,138.7254902,85.78431373,,,,
4580,139.2156863,36.76470588,,,,
4600,139.869281,49.01960784,,,,
4620,140.5228758,49.01960784,,,,
4640,141.0130719,36.76470588,,,,
4660,142.1568627,85.78431373,,,,
4680,142.8104575,49.01960784,,,,
4700,143.4640523,49.01960784,,,,
4720,143.9542484,36.76470588,,,,
4740,144.6078431,49.01960784,,,,
4760,145.0980392,36.76470588,,,,
4780,145.751634,49.01960784,,,,
4800,146.2418301,36.76470588,,,,
4820,146.8954248,49.01960784,,,,
4840,147.5490196,49.01960784,,,,
4860,148.0392157,36.76470588,,,,
4880,148.6928105,49.01960784,,,,
4900,149.1830065,36.76470588,,,,
4920,149.8366013,49.01960784,,,,
4940,150.3267974,36.76470588,,,,
4960,151.6339869,98.03921569,,,,
4980,152.124183,36.76470588,,,,
5000,152.7777778,49.01960784,,,,
5020,153.2679739,36.76470588,,,,
5040,153.9215686,49.01960784,,,,
5060,154.5751634,49.01960784,,,,
5080,155.0653595,36.76470588,,,,
5100,155.7189542,49.01960784,,,,
5120,156.2091503,36.76470588,,,,
5140,156.8627451,49.01960784,,,,
5160,157.5163399,49.01960784,,,,
5180,158.0065359,36.76470588,,,,
5200,158.6601307,49.01960784,,,,
5220,159.1503268,36.76470588,,,,
5240,159.8039216,49.01960784,,,,
5260,160.2941176,36.76470588,,,,
5280,160.9477124,49.01960784,,,,
5300,161.4379085,36.76470588,,,,
5320,162.0915033,49.01960784,,,,
5340,162.745098,49.01960784,,,,
5360,163.2352941,36.76470588,,,,
5380,163.8888889,49.01960784,,,,
5400,164.379085,36.76470588,,,,
5420,165.0326797,49.01960784,,,,
5440,165.6862745,49.01960784,,,,
5460,166.1764706,36.76470588,,,,
5480,166.8300654,49.01960784,,,,
5500,167.3202614,36.76470588,,,,
5520,167.9738562,49.01960784,,,,
5540,168.627451,49.01960784,,,,
5560,169.1176471,36.76470588,,,,
5580,169.7712418,49.01960784,,,,
5600,170.2614379,36.76470588,,,,
5620,170.9150327,49.01960784,,,,
5640,171.4052288,36.76470588,,,,
5660,172.0588235,49.01960784,,,,
5680,172.7124183,49.01960784,,,,
5700,173.2026144,36.76470588,,,,
5720,173.8562092,49.01960784,,,,
5740,174.5098039,49.01960784,,,,
5760,175.6535948,85.78431373,,,,
5780,176.1437908,36.76470588,,,,
5800,176.7973856,49.01960784,,,,
5820,177.2875817,36.76470588,,,,
5840,177.9411765,49.01960784,,,,
5860,178.5947712,49.01960784,,,,
5880,179.0849673,36.76470588,,,,
5900,179.7385621,49.01960784,,,,
5920,180.3921569,49.01960784,,,,
5940,180.8823529,36.76470588,,,,
5960,181.5359477,49.01960784,,,,
5980,182.6797386,85.78431373,,,,
6000,183.1699346,36.76470588,,,,
6020,183.8235294,49.01960784,,,,
6040,184.4771242,49.01960784,,,,
6060,184.9673203,36.76470588,,,,
6080,185.620915,49.01960784,,,,
6100,186.2745098,49.01960784,,,,
6120,186.7647059,36.76470588,,,,
6140,187.4183007,49.01960784,,,,
6160,187.9084967,36.76470588,,,,
6180,188.5620915,49.01960784,,,,
6200,189.0522876,36.76470588,,,,
6220,189.7058824,49.01960784,,,,
6240,190.3594771,49.01960784,,,,
6260,190.8496732,36.76470588,,,,
6280,191.503268,49.01960784,,,,
6300,191.9934641,36.76470588,,,,
6320,192.6470588,49.01960784,,,,
6340,193.3006536,49.01960784,,,,
6360,193.7908497,36.76470588,,,,
6380,194.4444444,49.01960784,,,,
6400,194.9346405,36.76470588,,,,
6420,195.5882353,49.01960784,,,,
6440,196.2418301,49.01960784,,,,
6460,196.7320261,36.76470588,,,,
6480,197.3856209,49.01960784,,,,
6500,197.875817,36.76470588,,,,
6520,198.5294118,49.01960784,,,,
6540,199.1830065,49.01960784,,,,
6560,199.6732026,36.76470588,,,,
6580,200.3267974,49.01960784,,,,
6600,200.8169935,36.76470588,,,,
6620,201.4705882,49.01960784,,,,
6640,202.124183,49.01960784,,,,
6660,202.6143791,36.76470588,,,,
6680,203.2679739,49.01960784,,,,
6700,203.9215686,49.01960784,,,,
6720,204.4117647,36.76470588,,,,
6740,205.0653595,49.01960784,,,,
6760,205.5555556,36.76470588,,,,
6780,206.6993464,85.78431373,,,,
6800,207.3529412,49.01960784,,,,
6820,208.0065359,49.01960784,,,,
6840,208.496732,36.76470588,,,,
6860,209.1503268,49.01960784,,,,
6880,209.8039216,49.01960784,,,,
6900,210.2941176,36.76470588,,,,
6920,210.9477124,49.01960784,,,,
6940,211.4379085,36.76470588,,,,
6960,212.0915033,49.01960784,,,,
6980,212.5816993,36.76470588,,,,
7000,213.2352941,49.01960784,,,,
7020,213.8888889,49.01960784,,,,
7040,214.379085,36.76470588,,,,
7060,215.0326797,49.01960784,,,,
7080,215.6862745,49.01960784,,,,
7100,216.1764706,36.76470588,,,,
7120,216.8300654,49.01960784,,,,
7140,217.3202614,36.76470588,,,,
7160,217.9738562,49.01960784,,,,
7180,218.4640523,36.76470588,,,,
7200,219.1176471,49.01960784,,,,
7220,219.7712418,49.01960784,,,,
7240,220.2614379,36.76470588,,,,
7260,220.9150327,49.01960784,,,,
7280,221.5686275,49.01960784,,,,
7300,222.0588235,36.76470588,,,,
7320,222.7124183,49.01960784,,,,
7340,223.2026144,36.76470588,,,,
7360,223.8562092,49.01960784,,,,
7380,224.3464052,36.76470588,,,,
7400,225,49.01960784,,,,
7420,225.6535948,49.01960784,,,,
7440,226.1437908,36.76470588,,,,
7460,226.7973856,49.01960784,,,,
7480,227.4509804,49.01960784,,,,
7500,228.5947712,85.78431373,,,,
7520,229.0849673,36.76470588,,,,
7540,229.7385621,49.01960784,,,,
7560,230.2287582,36.76470588,,,,
7580,230.8823529,49.01960784,,,,
7600,231.5359477,49.01960784,,,,
7620,232.0261438,36.76470588,,,,
7640,232.6797386,49.01960784,,,,
7660,233.3333333,49.01960784,,,,
7680,233.8235294,36.76470588,,,,
7700,234.4771242,49.01960784,,,,
7720,234.9673203,36.76470588,,,,
7740,235.620915,49.01960784,,,,
7760,236.1111111,36.76470588,,,,
7780,236.7647059,49.01960784,,,,
7800,237.9084967,85.78431373,,,,
7820,238.5620915,49.01960784,,,,
7840,239.2156863,49.01960784,,,,
7860,240.3594771,85.78431373,,,,
7880,240.8496732,36.76470588,,,,
7900,241.503268,49.01960784,,,,
7920,241.9934641,36.76470588,,,,
7940,242.6470588,49.01960784,,,,
7960,243.3006536,49.01960784,,,,
7980,243.7908497,36.76470588,,,,
8000,244.4444444,49.01960784,,,,
8020,245.0980392,49.01960784,,,,
8040,245.5882353,36.76470588,,,,
8060,246.2418301,49.01960784,,,,
8080,246.7320261,36.76470588,,,,
8100,247.3856209,49.01960784,,,,
8120,247.875817,36.76470588,,,,
8140,248.5294118,49.01960784,,,,
8160,249.1830065,49.01960784,,,,
8180,249.6732026,36.76470588,,,,
8200,250.3267974,49.01960784,,,,
8220,250.9803922,49.01960784,,,,
8240,251.4705882,36.76470588,,,,
8260,252.124183,49.01960784,,,,
8280,252.6143791,36.76470588,,,,
8300,253.2679739,49.01960784,,,,
8320,253.7581699,36.76470588,,,,
8340,254.4117647,49.01960784,,,,
8360,255.0653595,49.01960784,,,,
8380,255.5555556,36.76470588,,,,
8400,256.2091503,49.01960784,,,,
8420,256.8627451,49.01960784,,,,
8440,257.3529412,36.76470588,,,,
8460,258.0065359,49.01960784,,,,
8480,258.496732,36.76470588,,,,
8500,259.1503268,49.01960784,,,,
8520,259.6405229,36.76470588,,,,
8540,260.2941176,49.01960784,,,,
8560,260.9477124,49.01960784,,,,
8580,262.0915033,85.78431373,,,,
8600,262.745098,49.01960784,,,,
8620,263.2352941,36.76470588,,,,
8640,263.8888889,49.01960784,,,,
8660,264.379085,36.76470588,,,,
8680,265.0326797,49.01960784,,,,
8700,265.5228758,36.76470588,,,,
8720,266.1764706,49.01960784,,,,
8740,266.8300654,49.01960784,,,,
8760,267.3202614,36.76470588,,,,
8780,267.9738562,49.01960784,,,,
8800,269.1176471,85.78431373,,,,
8820,269.7712418,49.01960784,,,,
8840,270.2614379,36.76470588,,,,
8860,270.9150327,49.01960784,,,,
8880,271.4052288,36.76470588,,,,
8900,272.0588235,49.01960784,,,,
8920,272.7124183,49.01960784,,,,
8940,273.2026144,36.76470588,,,,
8960,273.8562092,49.01960784,,,,
8980,274.5098039,49.01960784,,,,
9000,275,36.76470588,,,,
9020,275.6535948,49.01960784,,,,
9040,276.1437908,36.76470588,,,,
9060,276.7973856,49.01960784,,,,
9080,277.2875817,36.76470588,,,,
9100,277.9411765,49.01960784,,,,
9120,278.5947712,49.01960784,,,,
9140,279.0849673,36.76470588,,,,
9160,279.7385621,49.01960784,,,,
9180,280.3921569,49.01960784,,,,
9200,280.8823529,36.76470588,,,,
9220,281.5359477,49.01960784,,,,
9240,282.0261438,36.76470588,,,,
9260,282.6797386,49.01960784,,,,
9280,283.1699346,36.76470588,,,,
9300,283.8235294,49.01960784,,,,
9320,284.4771242,49.01960784,,,,
9340,284.9673203,36.76470588,,,,
9360,286.1111111,85.78431373,,,,
9380,286.7647059,49.01960784,,,,
9400,287.4183007,49.01960784,,,,
9420,287.9084967,36.76470588,,,,
9440,288.5620915,49.01960784,,,,
9460,289.0522876,36.76470588,,,,
9480,289.7058824,49.01960784,,,,
9500,290.3594771,49.01960784,,,,
9520,290.8496732,36.76470588,,,,
9540,291.503268,49.01960784,,,,
9560,292.1568627,49.01960784,,,,
9580,293.3006536,85.78431373,,,,
9600,293.7908497,36.76470588,,,,
9620,294.4444444,49.01960784,,,,
9640,295.5882353,85.78431373,,,,
9660,296.2418301,49.01960784,,,,
9680,296.7320261,36.76470588,,,,
9700,297.3856209,49.01960784,,,,
9720,298.0392157,49.01960784,,,,
9740,298.5294118,36.76470588,,,,
9760,299.1830065,49.01960784,,,,
9780,299.6732026,36.76470588,,,,
9800,300.3267974,49.01960784,,,,
9820,300.8169935,36.76470588,,,,
9840,301.4705882,49.01960784,,,,
9860,302.124183,49.01960784,,,,
9880,302.6143791,36.76470588,,,,
9900,303.2679739,49.01960784,,,,
9920,303.9215686,49.01960784,,,,
9940,304.4117647,36.76470588,,,,
9960,305.0653595,49.01960784,,,,
9980,305.5555556,36.76470588,,,,
10000,306.2091503,49.01960784,,,,
10020,306.6993464,36.76470588,,,,
10040,307.3529412,49.01960784,,,,
10060,308.0065359,49.01960784,,,,
10080,308.496732,36.76470588,,,,
10100,309.1503268,49.01960784,,,,
10120,309.6405229,36.76470588,,,,
10140,310.2941176,49.01960784,,,,
10160,310.9477124,49.01960784,,,,
10180,311.4379085,36.76470588,,,,
10200,312.0915033,49.01960784,,,,
10220,312.5816993,36.76470588,,,,
10240,313.2352941,49.01960784,,,,
10260,313.7254902,36.76470588,,,,
10280,314.379085,49.01960784,,,,
10300,315.0326797,49.01960784,,,,
10320,315.5228758,36.76470588,,,,
10340,316.1764706,49.01960784,,,,
10360,317.3202614,85.78431373,,,,
10380,317.9738562,49.01960784,,,,
10400,318.4640523,36.76470588,,,,
10420,319.1176471,49.01960784,,,,
10440,319.6078431,36.76470588,,,,
10460,320.2614379,49.01960784,,,,
10480,320.9150327,49.01960784,,,,
10500,321.4052288,36.76470588,,,,
10520,322.0588235,49.01960784,,,,
10540,322.7124183,49.01960784,,,,
10560,323.2026144,36.76470588,,,,
10580,323.8562092,49.01960784,,,,
10600,324.3464052,36.76470588,,,,
10620,325,49.01960784,,,,
10640,325.4901961,36.76470588,,,,
10660,326.1437908,49.01960784,,,,
10680,326.7973856,49.01960784,,,,
10700,327.2875817,36.76470588,,,,
10720,327.9411765,49.01960784,,,,
10740,328.5947712,49.01960784,,,,
10760,329.0849673,36.76470588,,,,
10780,329.7385621,49.01960784,,,,
10800,330.2287582,36.76470588,,,,
10820,330.8823529,49.01960784,,,,
10840,331.5359477,49.01960784,,,,
10860,332.0261438,36.76470588,,,,
10880,332.6797386,49.01960784,,,,
10900,333.3333333,49.01960784,,,,
10920,333.8235294,36.76470588,,,,
10940,334.4771242,49.01960784,,,,
10960,334.9673203,36.76470588,,,,
10980,335.620915,49.01960784,,,,
11000,336.1111111,36.76470588,,,,
11020,336.7647059,49.01960784,,,,
11040,337.4183007,49.01960784,,,,
11060,337.9084967,36.76470588,,,,
11080,338.5620915,49.01960784,,,,
11100,339.2156863,49.01960784,,,,
11120,339.7058824,36.76470588,,,,
11140,340.3594771,49.01960784,,,,
11160,341.503268,85.78431373,,,,
11180,342.1568627,49.01960784,,,,
11200,342.6470588,36.76470588,,,,
11220,343.3006536,49.01960784,,,,
11240,343.7908497,36.76470588,,,,
11260,344.4444444,49.01960784,,,,
11280,345.0980392,49.01960784,,,,
11300,345.5882353,36.76470588,,,,
11320,346.2418301,49.01960784,,,,
11340,346.7320261,36.76470588,,,,
11360,347.3856209,49.01960784,,,,
11380,348.0392157,49.01960784,,,,
11400,348.5294118,36.76470588,,,,
11420,349.1830065,49.01960784,,,,
11440,349.6732026,36.76470588,,,,
11460,350.9803922,98.03921569,,,,
11480,351.4705882,36.76470588,,,,
11500,352.124183,49.01960784,,,,
11520,352.6143791,36.76470588,,,,
11540,353.2679739,49.01960784,,,,
11560,353.9215686,49.01960784,,,,
11580,354.4117647,36.76470588,,,,
11600,355.0653595,49.01960784,,,,
11620,355.5555556,36.76470588,,,,
11640,356.2091503,49.01960784,,,,
11660,356.8627451,49.01960784,,,,
11680,357.3529412,36.76470588,,,,
11700,358.0065359,49.01960784,,,,
11720,358.496732,36.76470588,,,,
11740,359.1503268,49.01960784,,,,
11760,359.8039216,49.01960784,,,,
11780,360.2941176,36.76470588,,,,
11800,360.9477124,49.01960784,,,,
11820,361.4379085,36.76470588,,,,
11840,362.0915033,49.01960784,,,,
11860,362.745098,49.01960784,,,,
11880,363.2352941,36.76470588,,,,
11900,363.8888889,49.01960784,,,,
11920,364.379085,36.76470588,,,,
11940,365.5228758,85.78431373,,,,
11960,366.1764706,49.01960784,,,,
11980,367.3202614,85.78431373,,,,
12000,367.9738562,49.01960784,,,,
12020,368.627451,49.01960784,,,,
12040,369.1176471,36.76470588,,,,
12060,369.7712418,49.01960784,,,,
12080,370.2614379,36.76470588,,,,
